[Measurement conditions]
Sample identification,
Comment - 1,"Configuration=Main Configuration, Owner=User-1, Creation date=6/17/2015 3:36:16 PM"
Comment - 2,"Goniometer=HR HD (Theta/2Theta); Minimum step size 2Theta:0.0001; Minimum step size Omega:0.0001"
Comment - 3,"Sample stage=MRD Cradle; Minimum step size Phi:0.01; Minimum step size Chi:0.01; Minimum step size X:0.01; Minimum step size Y:0.01; Minimum step size Z:0.001"
Comment - 4,"Diffractometer system=XPERT-3"
Comment - 5,"Measurement program=C:\PANalytical\Data Collector\Programs\Velarde\2theta-omega 15to55_33 min.xrdmp, Identifier={D54B214C-4725-4EA5-8A69-2F42546C41BB}"
Anode material,Cu
K-Alpha1 wavelength,1.5405980
K-Alpha2 wavelength,1.5444260
Ratio K-Alpha2/K-Alpha1,0.500
Divergence slit,Fixed,0.76mm
Receiving slit,0.38
Monochromator used,YES
Generator voltage, 45
Tube current, 40
File date and time,12/Oct/2016 10:33
Unit cell,
h k l, 0 0 0
Scan axis,2Theta-Omega
Scan range,15.00000,55.00000
Scan step size,0.0100000
Omega offset,0.1513
No. of points, 4000
Scan type,CONTINUOUS
Phi,0.00
Psi,0.97
X,0.00
Y,0.00
Z,8.310
Time per step,0.440
[Scan points]
Angle,Intensity
15.00500,37.0
15.01500,32.0
15.02500,47.0
15.03500,42.0
15.04500,38.0
15.05500,32.0
15.06500,35.0
15.07500,56.0
15.08500,53.0
15.09500,46.0
15.10500,38.0
15.11500,50.0
15.12500,43.0
15.13500,45.0
15.14500,50.0
15.15500,52.0
15.16500,32.0
15.17500,56.0
15.18500,45.0
15.19500,49.0
15.20500,40.0
15.21500,37.0
15.22500,35.0
15.23500,31.0
15.24500,44.0
15.25500,49.0
15.26500,51.0
15.27500,45.0
15.28500,47.0
15.29500,48.0
15.30500,44.0
15.31500,45.0
15.32500,35.0
15.33500,49.0
15.34500,45.0
15.35500,37.0
15.36500,46.0
15.37500,45.0
15.38500,51.0
15.39500,41.0
15.40500,43.0
15.41500,46.0
15.42500,51.0
15.43500,58.0
15.44500,43.0
15.45500,57.0
15.46500,55.0
15.47500,58.0
15.48500,46.0
15.49500,50.0
15.50500,50.0
15.51500,51.0
15.52500,59.0
15.53500,51.0
15.54500,47.0
15.55500,50.0
15.56500,54.0
15.57500,34.0
15.58500,51.0
15.59500,50.0
15.60500,40.0
15.61500,48.0
15.62500,37.0
15.63500,47.0
15.64500,34.0
15.65500,36.0
15.66500,43.0
15.67500,47.0
15.68500,45.0
15.69500,43.0
15.70500,42.0
15.71500,40.0
15.72500,42.0
15.73500,48.0
15.74500,33.0
15.75500,44.0
15.76500,45.0
15.77500,53.0
15.78500,46.0
15.79500,54.0
15.80500,50.0
15.81500,49.0
15.82500,51.0
15.83500,41.0
15.84500,46.0
15.85500,38.0
15.86500,43.0
15.87500,55.0
15.88500,38.0
15.89500,31.0
15.90500,47.0
15.91500,42.0
15.92500,45.0
15.93500,37.0
15.94500,42.0
15.95500,57.0
15.96500,44.0
15.97500,43.0
15.98500,50.0
15.99500,53.0
16.00500,61.0
16.01500,48.0
16.02500,45.0
16.03500,40.0
16.04500,50.0
16.05500,52.0
16.06500,41.0
16.07500,49.0
16.08500,42.0
16.09500,52.0
16.10500,45.0
16.11500,31.0
16.12500,49.0
16.13500,45.0
16.14500,51.0
16.15500,50.0
16.16500,40.0
16.17500,50.0
16.18500,61.0
16.19500,39.0
16.20500,39.0
16.21500,37.0
16.22500,56.0
16.23500,45.0
16.24500,49.0
16.25500,54.0
16.26500,42.0
16.27500,37.0
16.28500,50.0
16.29500,39.0
16.30500,37.0
16.31500,49.0
16.32500,44.0
16.33500,44.0
16.34500,44.0
16.35500,49.0
16.36500,50.0
16.37500,47.0
16.38500,53.0
16.39500,50.0
16.40500,41.0
16.41500,70.0
16.42500,54.0
16.43500,45.0
16.44500,50.0
16.45500,48.0
16.46500,52.0
16.47500,36.0
16.48500,43.0
16.49500,64.0
16.50500,44.0
16.51500,57.0
16.52500,44.0
16.53500,44.0
16.54500,68.0
16.55500,50.0
16.56500,60.0
16.57500,35.0
16.58500,61.0
16.59500,51.0
16.60500,39.0
16.61500,50.0
16.62500,50.0
16.63500,50.0
16.64500,64.0
16.65500,56.0
16.66500,52.0
16.67500,53.0
16.68500,39.0
16.69500,58.0
16.70500,60.0
16.71500,53.0
16.72500,49.0
16.73500,49.0
16.74500,53.0
16.75500,42.0
16.76500,46.0
16.77500,49.0
16.78500,46.0
16.79500,45.0
16.80500,51.0
16.81500,51.0
16.82500,49.0
16.83500,49.0
16.84500,48.0
16.85500,57.0
16.86500,66.0
16.87500,45.0
16.88500,44.0
16.89500,52.0
16.90500,71.0
16.91500,43.0
16.92500,57.0
16.93500,60.0
16.94500,53.0
16.95500,47.0
16.96500,60.0
16.97500,42.0
16.98500,43.0
16.99500,61.0
17.00500,53.0
17.01500,60.0
17.02500,42.0
17.03500,48.0
17.04500,50.0
17.05500,49.0
17.06500,51.0
17.07500,43.0
17.08500,43.0
17.09500,44.0
17.10500,57.0
17.11500,66.0
17.12500,44.0
17.13500,59.0
17.14500,55.0
17.15500,42.0
17.16500,43.0
17.17500,40.0
17.18500,49.0
17.19500,48.0
17.20500,35.0
17.21500,52.0
17.22500,51.0
17.23500,54.0
17.24500,55.0
17.25500,45.0
17.26500,45.0
17.27500,49.0
17.28500,52.0
17.29500,46.0
17.30500,48.0
17.31500,55.0
17.32500,60.0
17.33500,61.0
17.34500,67.0
17.35500,48.0
17.36500,54.0
17.37500,54.0
17.38500,51.0
17.39500,53.0
17.40500,61.0
17.41500,41.0
17.42500,60.0
17.43500,39.0
17.44500,53.0
17.45500,49.0
17.46500,56.0
17.47500,39.0
17.48500,43.0
17.49500,47.0
17.50500,49.0
17.51500,57.0
17.52500,51.0
17.53500,52.0
17.54500,35.0
17.55500,44.0
17.56500,64.0
17.57500,57.0
17.58500,47.0
17.59500,55.0
17.60500,51.0
17.61500,48.0
17.62500,52.0
17.63500,57.0
17.64500,53.0
17.65500,57.0
17.66500,40.0
17.67500,50.0
17.68500,44.0
17.69500,54.0
17.70500,49.0
17.71500,50.0
17.72500,51.0
17.73500,66.0
17.74500,62.0
17.75500,48.0
17.76500,48.0
17.77500,48.0
17.78500,46.0
17.79500,54.0
17.80500,42.0
17.81500,43.0
17.82500,39.0
17.83500,59.0
17.84500,52.0
17.85500,51.0
17.86500,63.0
17.87500,54.0
17.88500,45.0
17.89500,48.0
17.90500,58.0
17.91500,52.0
17.92500,39.0
17.93500,43.0
17.94500,50.0
17.95500,41.0
17.96500,42.0
17.97500,50.0
17.98500,46.0
17.99500,65.0
18.00500,64.0
18.01500,36.0
18.02500,40.0
18.03500,63.0
18.04500,72.0
18.05500,44.0
18.06500,54.0
18.07500,37.0
18.08500,54.0
18.09500,40.0
18.10500,48.0
18.11500,43.0
18.12500,43.0
18.13500,53.0
18.14500,37.0
18.15500,51.0
18.16500,41.0
18.17500,37.0
18.18500,55.0
18.19500,63.0
18.20500,51.0
18.21500,49.0
18.22500,53.0
18.23500,56.0
18.24500,50.0
18.25500,65.0
18.26500,34.0
18.27500,52.0
18.28500,46.0
18.29500,53.0
18.30500,51.0
18.31500,54.0
18.32500,61.0
18.33500,44.0
18.34500,51.0
18.35500,56.0
18.36500,64.0
18.37500,40.0
18.38500,56.0
18.39500,43.0
18.40500,42.0
18.41500,42.0
18.42500,46.0
18.43500,49.0
18.44500,56.0
18.45500,54.0
18.46500,48.0
18.47500,44.0
18.48500,51.0
18.49500,39.0
18.50500,53.0
18.51500,47.0
18.52500,53.0
18.53500,45.0
18.54500,56.0
18.55500,51.0
18.56500,49.0
18.57500,49.0
18.58500,61.0
18.59500,53.0
18.60500,42.0
18.61500,42.0
18.62500,40.0
18.63500,42.0
18.64500,48.0
18.65500,40.0
18.66500,56.0
18.67500,48.0
18.68500,50.0
18.69500,54.0
18.70500,38.0
18.71500,43.0
18.72500,32.0
18.73500,42.0
18.74500,39.0
18.75500,28.0
18.76500,47.0
18.77500,47.0
18.78500,50.0
18.79500,56.0
18.80500,44.0
18.81500,40.0
18.82500,62.0
18.83500,51.0
18.84500,52.0
18.85500,47.0
18.86500,57.0
18.87500,50.0
18.88500,54.0
18.89500,42.0
18.90500,48.0
18.91500,47.0
18.92500,52.0
18.93500,47.0
18.94500,37.0
18.95500,52.0
18.96500,55.0
18.97500,53.0
18.98500,45.0
18.99500,49.0
19.00500,49.0
19.01500,52.0
19.02500,58.0
19.03500,52.0
19.04500,47.0
19.05500,53.0
19.06500,57.0
19.07500,44.0
19.08500,52.0
19.09500,47.0
19.10500,53.0
19.11500,50.0
19.12500,49.0
19.13500,56.0
19.14500,40.0
19.15500,42.0
19.16500,57.0
19.17500,54.0
19.18500,53.0
19.19500,55.0
19.20500,57.0
19.21500,40.0
19.22500,44.0
19.23500,49.0
19.24500,61.0
19.25500,39.0
19.26500,46.0
19.27500,58.0
19.28500,47.0
19.29500,54.0
19.30500,44.0
19.31500,40.0
19.32500,42.0
19.33500,40.0
19.34500,55.0
19.35500,53.0
19.36500,63.0
19.37500,59.0
19.38500,55.0
19.39500,50.0
19.40500,63.0
19.41500,56.0
19.42500,55.0
19.43500,51.0
19.44500,49.0
19.45500,50.0
19.46500,44.0
19.47500,62.0
19.48500,49.0
19.49500,49.0
19.50500,48.0
19.51500,64.0
19.52500,48.0
19.53500,38.0
19.54500,47.0
19.55500,59.0
19.56500,48.0
19.57500,61.0
19.58500,42.0
19.59500,46.0
19.60500,52.0
19.61500,53.0
19.62500,63.0
19.63500,57.0
19.64500,50.0
19.65500,46.0
19.66500,55.0
19.67500,53.0
19.68500,58.0
19.69500,55.0
19.70500,58.0
19.71500,71.0
19.72500,74.0
19.73500,70.0
19.74500,65.0
19.75500,70.0
19.76500,61.0
19.77500,48.0
19.78500,47.0
19.79500,50.0
19.80500,55.0
19.81500,42.0
19.82500,47.0
19.83500,50.0
19.84500,50.0
19.85500,46.0
19.86500,53.0
19.87500,57.0
19.88500,49.0
19.89500,53.0
19.90500,48.0
19.91500,53.0
19.92500,65.0
19.93500,44.0
19.94500,55.0
19.95500,65.0
19.96500,60.0
19.97500,81.0
19.98500,67.0
19.99500,64.0
20.00500,86.0
20.01500,68.0
20.02500,82.0
20.03500,76.0
20.04500,77.0
20.05500,71.0
20.06500,71.0
20.07500,59.0
20.08500,50.0
20.09500,62.0
20.10500,68.0
20.11500,62.0
20.12500,55.0
20.13500,53.0
20.14500,55.0
20.15500,48.0
20.16500,57.0
20.17500,51.0
20.18500,55.0
20.19500,60.0
20.20500,74.0
20.21500,70.0
20.22500,85.0
20.23500,69.0
20.24500,82.0
20.25500,80.0
20.26500,85.0
20.27500,106.0
20.28500,89.0
20.29500,90.0
20.30500,107.0
20.31500,120.0
20.32500,104.0
20.33500,103.0
20.34500,102.0
20.35500,99.0
20.36500,98.0
20.37500,98.0
20.38500,71.0
20.39500,63.0
20.40500,81.0
20.41500,70.0
20.42500,70.0
20.43500,63.0
20.44500,64.0
20.45500,79.0
20.46500,66.0
20.47500,84.0
20.48500,72.0
20.49500,95.0
20.50500,111.0
20.51500,101.0
20.52500,139.0
20.53500,147.0
20.54500,132.0
20.55500,141.0
20.56500,159.0
20.57500,153.0
20.58500,159.0
20.59500,148.0
20.60500,155.0
20.61500,167.0
20.62500,170.0
20.63500,142.0
20.64500,184.0
20.65500,165.0
20.66500,137.0
20.67500,146.0
20.68500,121.0
20.69500,121.0
20.70500,116.0
20.71500,132.0
20.72500,134.0
20.73500,118.0
20.74500,124.0
20.75500,138.0
20.76500,157.0
20.77500,159.0
20.78500,189.0
20.79500,197.0
20.80500,216.0
20.81500,282.0
20.82500,231.0
20.83500,287.0
20.84500,307.0
20.85500,308.0
20.86500,352.0
20.87500,375.0
20.88500,361.0
20.89500,386.0
20.90500,346.0
20.91500,330.0
20.92500,426.0
20.93500,402.0
20.94500,365.0
20.95500,352.0
20.96500,351.0
20.97500,333.0
20.98500,345.0
20.99500,325.0
21.00500,348.0
21.01500,403.0
21.02500,409.0
21.03500,397.0
21.04500,500.0
21.05500,518.0
21.06500,618.0
21.07500,604.0
21.08500,764.0
21.09500,811.0
21.10500,874.0
21.11500,998.0
21.12500,1016.0
21.13500,1186.0
21.14500,1278.0
21.15500,1321.0
21.16500,1385.0
21.17500,1433.0
21.18500,1488.0
21.19500,1686.0
21.20500,1745.0
21.21500,1785.0
21.22500,1853.0
21.23500,1894.0
21.24500,2120.0
21.25500,2251.0
21.26500,2515.0
21.27500,2609.0
21.28500,2929.0
21.29500,3099.0
21.30500,3565.0
21.31500,4461.0
21.32500,4665.0
21.33500,5931.0
21.34500,5965.0
21.35500,6943.0
21.36500,8098.0
21.37500,8406.0
21.38500,10351.0
21.39500,11474.0
21.40500,12584.0
21.41500,14713.0
21.42500,14011.0
21.43500,16406.0
21.44500,18471.0
21.45500,20507.0
21.46500,26249.0
21.47500,26165.0
21.48500,32732.0
21.49500,30516.0
21.50500,31669.0
21.51500,28592.0
21.52500,22227.0
21.53500,19206.0
21.54500,11859.0
21.55500,8904.0
21.56500,5367.0
21.57500,3483.0
21.58500,2534.0
21.59500,1633.0
21.60500,1503.0
21.61500,1089.0
21.62500,920.0
21.63500,746.0
21.64500,481.0
21.65500,432.0
21.66500,338.0
21.67500,310.0
21.68500,256.0
21.69500,216.0
21.70500,179.0
21.71500,157.0
21.72500,115.0
21.73500,110.0
21.74500,92.0
21.75500,99.0
21.76500,112.0
21.77500,116.0
21.78500,128.0
21.79500,132.0
21.80500,170.0
21.81500,197.0
21.82500,254.0
21.83500,270.0
21.84500,269.0
21.85500,351.0
21.86500,326.0
21.87500,390.0
21.88500,456.0
21.89500,495.0
21.90500,535.0
21.91500,502.0
21.92500,562.0
21.93500,511.0
21.94500,542.0
21.95500,580.0
21.96500,529.0
21.97500,575.0
21.98500,461.0
21.99500,492.0
22.00500,450.0
22.01500,353.0
22.02500,367.0
22.03500,314.0
22.04500,281.0
22.05500,249.0
22.06500,197.0
22.07500,166.0
22.08500,145.0
22.09500,107.0
22.10500,73.0
22.11500,77.0
22.12500,79.0
22.13500,63.0
22.14500,77.0
22.15500,78.0
22.16500,109.0
22.17500,128.0
22.18500,151.0
22.19500,196.0
22.20500,227.0
22.21500,239.0
22.22500,271.0
22.23500,397.0
22.24500,384.0
22.25500,465.0
22.26500,534.0
22.27500,566.0
22.28500,721.0
22.29500,837.0
22.30500,1168.0
22.31500,1664.0
22.32500,2237.0
22.33500,3455.0
22.34500,4985.0
22.35500,7882.0
22.36500,18212.0
22.37500,51479.0
22.38500,218265.0
22.39500,617652.0
22.40500,390956.0
22.41500,79652.0
22.42500,13712.0
22.43500,7458.0
22.44500,3780.0
22.45500,2503.0
22.46500,1940.0
22.47500,1255.0
22.48500,1055.0
22.49500,684.0
22.50500,654.0
22.51500,496.0
22.52500,440.0
22.53500,339.0
22.54500,327.0
22.55500,270.0
22.56500,240.0
22.57500,220.0
22.58500,201.0
22.59500,196.0
22.60500,163.0
22.61500,185.0
22.62500,175.0
22.63500,186.0
22.64500,194.0
22.65500,177.0
22.66500,169.0
22.67500,190.0
22.68500,146.0
22.69500,149.0
22.70500,151.0
22.71500,128.0
22.72500,123.0
22.73500,107.0
22.74500,114.0
22.75500,105.0
22.76500,93.0
22.77500,71.0
22.78500,76.0
22.79500,61.0
22.80500,55.0
22.81500,56.0
22.82500,44.0
22.83500,58.0
22.84500,47.0
22.85500,62.0
22.86500,49.0
22.87500,48.0
22.88500,62.0
22.89500,70.0
22.90500,55.0
22.91500,69.0
22.92500,64.0
22.93500,61.0
22.94500,69.0
22.95500,60.0
22.96500,67.0
22.97500,55.0
22.98500,66.0
22.99500,55.0
23.00500,52.0
23.01500,54.0
23.02500,48.0
23.03500,47.0
23.04500,64.0
23.05500,57.0
23.06500,47.0
23.07500,38.0
23.08500,34.0
23.09500,40.0
23.10500,44.0
23.11500,51.0
23.12500,30.0
23.13500,27.0
23.14500,30.0
23.15500,29.0
23.16500,30.0
23.17500,37.0
23.18500,32.0
23.19500,31.0
23.20500,35.0
23.21500,40.0
23.22500,41.0
23.23500,46.0
23.24500,50.0
23.25500,52.0
23.26500,51.0
23.27500,49.0
23.28500,58.0
23.29500,50.0
23.30500,47.0
23.31500,38.0
23.32500,47.0
23.33500,39.0
23.34500,44.0
23.35500,48.0
23.36500,35.0
23.37500,36.0
23.38500,42.0
23.39500,34.0
23.40500,35.0
23.41500,33.0
23.42500,43.0
23.43500,37.0
23.44500,35.0
23.45500,44.0
23.46500,29.0
23.47500,31.0
23.48500,32.0
23.49500,24.0
23.50500,37.0
23.51500,31.0
23.52500,44.0
23.53500,36.0
23.54500,35.0
23.55500,42.0
23.56500,40.0
23.57500,35.0
23.58500,44.0
23.59500,35.0
23.60500,23.0
23.61500,42.0
23.62500,31.0
23.63500,34.0
23.64500,35.0
23.65500,30.0
23.66500,33.0
23.67500,39.0
23.68500,27.0
23.69500,36.0
23.70500,33.0
23.71500,27.0
23.72500,31.0
23.73500,23.0
23.74500,27.0
23.75500,39.0
23.76500,37.0
23.77500,34.0
23.78500,45.0
23.79500,40.0
23.80500,38.0
23.81500,35.0
23.82500,34.0
23.83500,37.0
23.84500,40.0
23.85500,32.0
23.86500,39.0
23.87500,40.0
23.88500,34.0
23.89500,38.0
23.90500,22.0
23.91500,39.0
23.92500,28.0
23.93500,29.0
23.94500,34.0
23.95500,37.0
23.96500,31.0
23.97500,27.0
23.98500,35.0
23.99500,27.0
24.00500,18.0
24.01500,43.0
24.02500,36.0
24.03500,28.0
24.04500,37.0
24.05500,36.0
24.06500,49.0
24.07500,35.0
24.08500,32.0
24.09500,32.0
24.10500,27.0
24.11500,26.0
24.12500,30.0
24.13500,37.0
24.14500,36.0
24.15500,22.0
24.16500,36.0
24.17500,30.0
24.18500,35.0
24.19500,37.0
24.20500,35.0
24.21500,33.0
24.22500,33.0
24.23500,33.0
24.24500,31.0
24.25500,28.0
24.26500,32.0
24.27500,27.0
24.28500,26.0
24.29500,24.0
24.30500,27.0
24.31500,34.0
24.32500,27.0
24.33500,38.0
24.34500,26.0
24.35500,30.0
24.36500,27.0
24.37500,41.0
24.38500,21.0
24.39500,30.0
24.40500,33.0
24.41500,29.0
24.42500,29.0
24.43500,28.0
24.44500,28.0
24.45500,40.0
24.46500,31.0
24.47500,37.0
24.48500,34.0
24.49500,20.0
24.50500,37.0
24.51500,27.0
24.52500,30.0
24.53500,32.0
24.54500,44.0
24.55500,26.0
24.56500,23.0
24.57500,25.0
24.58500,35.0
24.59500,20.0
24.60500,26.0
24.61500,32.0
24.62500,32.0
24.63500,26.0
24.64500,32.0
24.65500,35.0
24.66500,33.0
24.67500,27.0
24.68500,27.0
24.69500,25.0
24.70500,27.0
24.71500,30.0
24.72500,38.0
24.73500,33.0
24.74500,30.0
24.75500,28.0
24.76500,38.0
24.77500,34.0
24.78500,29.0
24.79500,33.0
24.80500,28.0
24.81500,25.0
24.82500,26.0
24.83500,30.0
24.84500,37.0
24.85500,40.0
24.86500,23.0
24.87500,27.0
24.88500,28.0
24.89500,29.0
24.90500,28.0
24.91500,23.0
24.92500,35.0
24.93500,29.0
24.94500,24.0
24.95500,29.0
24.96500,30.0
24.97500,39.0
24.98500,28.0
24.99500,41.0
25.00500,26.0
25.01500,26.0
25.02500,29.0
25.03500,39.0
25.04500,35.0
25.05500,23.0
25.06500,27.0
25.07500,30.0
25.08500,26.0
25.09500,32.0
25.10500,28.0
25.11500,29.0
25.12500,32.0
25.13500,41.0
25.14500,29.0
25.15500,33.0
25.16500,35.0
25.17500,22.0
25.18500,23.0
25.19500,28.0
25.20500,32.0
25.21500,26.0
25.22500,38.0
25.23500,16.0
25.24500,26.0
25.25500,24.0
25.26500,41.0
25.27500,41.0
25.28500,29.0
25.29500,32.0
25.30500,30.0
25.31500,25.0
25.32500,29.0
25.33500,30.0
25.34500,39.0
25.35500,31.0
25.36500,32.0
25.37500,23.0
25.38500,35.0
25.39500,32.0
25.40500,36.0
25.41500,34.0
25.42500,29.0
25.43500,24.0
25.44500,26.0
25.45500,23.0
25.46500,30.0
25.47500,33.0
25.48500,33.0
25.49500,29.0
25.50500,29.0
25.51500,25.0
25.52500,23.0
25.53500,25.0
25.54500,28.0
25.55500,37.0
25.56500,21.0
25.57500,22.0
25.58500,26.0
25.59500,37.0
25.60500,26.0
25.61500,15.0
25.62500,34.0
25.63500,25.0
25.64500,33.0
25.65500,30.0
25.66500,25.0
25.67500,28.0
25.68500,20.0
25.69500,24.0
25.70500,33.0
25.71500,27.0
25.72500,25.0
25.73500,30.0
25.74500,22.0
25.75500,27.0
25.76500,21.0
25.77500,35.0
25.78500,25.0
25.79500,15.0
25.80500,37.0
25.81500,27.0
25.82500,25.0
25.83500,32.0
25.84500,27.0
25.85500,29.0
25.86500,22.0
25.87500,30.0
25.88500,31.0
25.89500,23.0
25.90500,34.0
25.91500,25.0
25.92500,32.0
25.93500,30.0
25.94500,25.0
25.95500,21.0
25.96500,27.0
25.97500,21.0
25.98500,34.0
25.99500,39.0
26.00500,24.0
26.01500,20.0
26.02500,28.0
26.03500,30.0
26.04500,22.0
26.05500,35.0
26.06500,29.0
26.07500,26.0
26.08500,21.0
26.09500,24.0
26.10500,28.0
26.11500,28.0
26.12500,21.0
26.13500,22.0
26.14500,24.0
26.15500,28.0
26.16500,21.0
26.17500,23.0
26.18500,25.0
26.19500,32.0
26.20500,30.0
26.21500,41.0
26.22500,25.0
26.23500,35.0
26.24500,23.0
26.25500,18.0
26.26500,18.0
26.27500,26.0
26.28500,23.0
26.29500,32.0
26.30500,27.0
26.31500,32.0
26.32500,28.0
26.33500,32.0
26.34500,28.0
26.35500,29.0
26.36500,27.0
26.37500,22.0
26.38500,22.0
26.39500,34.0
26.40500,23.0
26.41500,27.0
26.42500,27.0
26.43500,21.0
26.44500,19.0
26.45500,27.0
26.46500,28.0
26.47500,21.0
26.48500,20.0
26.49500,19.0
26.50500,26.0
26.51500,21.0
26.52500,30.0
26.53500,27.0
26.54500,34.0
26.55500,24.0
26.56500,29.0
26.57500,25.0
26.58500,29.0
26.59500,31.0
26.60500,25.0
26.61500,15.0
26.62500,27.0
26.63500,22.0
26.64500,35.0
26.65500,15.0
26.66500,30.0
26.67500,25.0
26.68500,34.0
26.69500,35.0
26.70500,18.0
26.71500,25.0
26.72500,30.0
26.73500,23.0
26.74500,23.0
26.75500,29.0
26.76500,23.0
26.77500,32.0
26.78500,23.0
26.79500,20.0
26.80500,26.0
26.81500,29.0
26.82500,28.0
26.83500,24.0
26.84500,28.0
26.85500,19.0
26.86500,26.0
26.87500,18.0
26.88500,16.0
26.89500,31.0
26.90500,29.0
26.91500,20.0
26.92500,23.0
26.93500,22.0
26.94500,30.0
26.95500,22.0
26.96500,28.0
26.97500,25.0
26.98500,35.0
26.99500,22.0
27.00500,25.0
27.01500,18.0
27.02500,27.0
27.03500,31.0
27.04500,29.0
27.05500,20.0
27.06500,26.0
27.07500,22.0
27.08500,20.0
27.09500,21.0
27.10500,25.0
27.11500,20.0
27.12500,21.0
27.13500,22.0
27.14500,24.0
27.15500,28.0
27.16500,16.0
27.17500,26.0
27.18500,23.0
27.19500,25.0
27.20500,32.0
27.21500,22.0
27.22500,19.0
27.23500,23.0
27.24500,31.0
27.25500,13.0
27.26500,27.0
27.27500,26.0
27.28500,26.0
27.29500,25.0
27.30500,21.0
27.31500,28.0
27.32500,18.0
27.33500,20.0
27.34500,15.0
27.35500,18.0
27.36500,26.0
27.37500,16.0
27.38500,22.0
27.39500,20.0
27.40500,29.0
27.41500,25.0
27.42500,23.0
27.43500,25.0
27.44500,30.0
27.45500,23.0
27.46500,21.0
27.47500,26.0
27.48500,20.0
27.49500,27.0
27.50500,27.0
27.51500,20.0
27.52500,17.0
27.53500,27.0
27.54500,18.0
27.55500,23.0
27.56500,19.0
27.57500,25.0
27.58500,31.0
27.59500,26.0
27.60500,26.0
27.61500,27.0
27.62500,23.0
27.63500,27.0
27.64500,24.0
27.65500,24.0
27.66500,17.0
27.67500,18.0
27.68500,31.0
27.69500,26.0
27.70500,21.0
27.71500,19.0
27.72500,22.0
27.73500,22.0
27.74500,30.0
27.75500,21.0
27.76500,31.0
27.77500,25.0
27.78500,17.0
27.79500,28.0
27.80500,13.0
27.81500,28.0
27.82500,18.0
27.83500,21.0
27.84500,20.0
27.85500,16.0
27.86500,11.0
27.87500,35.0
27.88500,20.0
27.89500,23.0
27.90500,23.0
27.91500,12.0
27.92500,29.0
27.93500,18.0
27.94500,22.0
27.95500,19.0
27.96500,28.0
27.97500,24.0
27.98500,19.0
27.99500,19.0
28.00500,25.0
28.01500,32.0
28.02500,22.0
28.03500,32.0
28.04500,25.0
28.05500,22.0
28.06500,34.0
28.07500,23.0
28.08500,25.0
28.09500,34.0
28.10500,19.0
28.11500,25.0
28.12500,19.0
28.13500,25.0
28.14500,23.0
28.15500,16.0
28.16500,23.0
28.17500,20.0
28.18500,24.0
28.19500,22.0
28.20500,15.0
28.21500,21.0
28.22500,22.0
28.23500,24.0
28.24500,23.0
28.25500,25.0
28.26500,20.0
28.27500,23.0
28.28500,27.0
28.29500,18.0
28.30500,22.0
28.31500,16.0
28.32500,19.0
28.33500,25.0
28.34500,12.0
28.35500,20.0
28.36500,24.0
28.37500,25.0
28.38500,25.0
28.39500,17.0
28.40500,29.0
28.41500,22.0
28.42500,25.0
28.43500,28.0
28.44500,21.0
28.45500,28.0
28.46500,23.0
28.47500,17.0
28.48500,20.0
28.49500,23.0
28.50500,21.0
28.51500,18.0
28.52500,25.0
28.53500,17.0
28.54500,18.0
28.55500,25.0
28.56500,19.0
28.57500,27.0
28.58500,24.0
28.59500,19.0
28.60500,20.0
28.61500,16.0
28.62500,19.0
28.63500,24.0
28.64500,20.0
28.65500,31.0
28.66500,24.0
28.67500,24.0
28.68500,23.0
28.69500,15.0
28.70500,26.0
28.71500,24.0
28.72500,15.0
28.73500,16.0
28.74500,16.0
28.75500,17.0
28.76500,19.0
28.77500,29.0
28.78500,13.0
28.79500,18.0
28.80500,19.0
28.81500,28.0
28.82500,15.0
28.83500,22.0
28.84500,28.0
28.85500,25.0
28.86500,13.0
28.87500,20.0
28.88500,13.0
28.89500,22.0
28.90500,22.0
28.91500,25.0
28.92500,23.0
28.93500,19.0
28.94500,20.0
28.95500,25.0
28.96500,20.0
28.97500,28.0
28.98500,17.0
28.99500,22.0
29.00500,13.0
29.01500,22.0
29.02500,21.0
29.03500,11.0
29.04500,26.0
29.05500,23.0
29.06500,25.0
29.07500,28.0
29.08500,17.0
29.09500,29.0
29.10500,18.0
29.11500,22.0
29.12500,15.0
29.13500,14.0
29.14500,19.0
29.15500,10.0
29.16500,22.0
29.17500,33.0
29.18500,14.0
29.19500,21.0
29.20500,23.0
29.21500,19.0
29.22500,29.0
29.23500,21.0
29.24500,20.0
29.25500,27.0
29.26500,21.0
29.27500,22.0
29.28500,25.0
29.29500,19.0
29.30500,21.0
29.31500,16.0
29.32500,36.0
29.33500,20.0
29.34500,22.0
29.35500,24.0
29.36500,19.0
29.37500,25.0
29.38500,19.0
29.39500,27.0
29.40500,23.0
29.41500,22.0
29.42500,20.0
29.43500,21.0
29.44500,19.0
29.45500,21.0
29.46500,27.0
29.47500,25.0
29.48500,17.0
29.49500,19.0
29.50500,15.0
29.51500,24.0
29.52500,20.0
29.53500,23.0
29.54500,25.0
29.55500,29.0
29.56500,24.0
29.57500,26.0
29.58500,30.0
29.59500,19.0
29.60500,19.0
29.61500,15.0
29.62500,26.0
29.63500,18.0
29.64500,27.0
29.65500,22.0
29.66500,22.0
29.67500,19.0
29.68500,17.0
29.69500,18.0
29.70500,23.0
29.71500,15.0
29.72500,22.0
29.73500,24.0
29.74500,20.0
29.75500,19.0
29.76500,18.0
29.77500,22.0
29.78500,18.0
29.79500,16.0
29.80500,23.0
29.81500,30.0
29.82500,17.0
29.83500,19.0
29.84500,21.0
29.85500,22.0
29.86500,21.0
29.87500,19.0
29.88500,23.0
29.89500,24.0
29.90500,23.0
29.91500,20.0
29.92500,24.0
29.93500,16.0
29.94500,14.0
29.95500,16.0
29.96500,25.0
29.97500,20.0
29.98500,23.0
29.99500,20.0
30.00500,21.0
30.01500,13.0
30.02500,26.0
30.03500,19.0
30.04500,16.0
30.05500,11.0
30.06500,18.0
30.07500,22.0
30.08500,15.0
30.09500,21.0
30.10500,25.0
30.11500,12.0
30.12500,25.0
30.13500,13.0
30.14500,15.0
30.15500,17.0
30.16500,24.0
30.17500,24.0
30.18500,28.0
30.19500,19.0
30.20500,28.0
30.21500,23.0
30.22500,13.0
30.23500,17.0
30.24500,22.0
30.25500,22.0
30.26500,14.0
30.27500,20.0
30.28500,22.0
30.29500,15.0
30.30500,20.0
30.31500,22.0
30.32500,13.0
30.33500,23.0
30.34500,21.0
30.35500,20.0
30.36500,20.0
30.37500,23.0
30.38500,25.0
30.39500,20.0
30.40500,30.0
30.41500,14.0
30.42500,24.0
30.43500,13.0
30.44500,15.0
30.45500,27.0
30.46500,12.0
30.47500,20.0
30.48500,21.0
30.49500,22.0
30.50500,21.0
30.51500,23.0
30.52500,17.0
30.53500,17.0
30.54500,16.0
30.55500,17.0
30.56500,15.0
30.57500,26.0
30.58500,27.0
30.59500,26.0
30.60500,19.0
30.61500,22.0
30.62500,20.0
30.63500,24.0
30.64500,16.0
30.65500,15.0
30.66500,15.0
30.67500,25.0
30.68500,20.0
30.69500,19.0
30.70500,17.0
30.71500,17.0
30.72500,19.0
30.73500,23.0
30.74500,24.0
30.75500,16.0
30.76500,17.0
30.77500,18.0
30.78500,20.0
30.79500,21.0
30.80500,13.0
30.81500,20.0
30.82500,17.0
30.83500,18.0
30.84500,25.0
30.85500,12.0
30.86500,25.0
30.87500,14.0
30.88500,17.0
30.89500,20.0
30.90500,29.0
30.91500,17.0
30.92500,18.0
30.93500,21.0
30.94500,20.0
30.95500,27.0
30.96500,19.0
30.97500,16.0
30.98500,12.0
30.99500,13.0
31.00500,19.0
31.01500,25.0
31.02500,21.0
31.03500,20.0
31.04500,14.0
31.05500,19.0
31.06500,19.0
31.07500,16.0
31.08500,22.0
31.09500,16.0
31.10500,24.0
31.11500,17.0
31.12500,19.0
31.13500,26.0
31.14500,22.0
31.15500,18.0
31.16500,21.0
31.17500,23.0
31.18500,17.0
31.19500,16.0
31.20500,21.0
31.21500,16.0
31.22500,14.0
31.23500,19.0
31.24500,27.0
31.25500,20.0
31.26500,15.0
31.27500,16.0
31.28500,18.0
31.29500,20.0
31.30500,21.0
31.31500,15.0
31.32500,18.0
31.33500,32.0
31.34500,18.0
31.35500,19.0
31.36500,14.0
31.37500,20.0
31.38500,20.0
31.39500,21.0
31.40500,18.0
31.41500,22.0
31.42500,17.0
31.43500,17.0
31.44500,16.0
31.45500,15.0
31.46500,17.0
31.47500,13.0
31.48500,16.0
31.49500,15.0
31.50500,12.0
31.51500,12.0
31.52500,18.0
31.53500,23.0
31.54500,19.0
31.55500,26.0
31.56500,22.0
31.57500,17.0
31.58500,22.0
31.59500,16.0
31.60500,15.0
31.61500,14.0
31.62500,14.0
31.63500,23.0
31.64500,17.0
31.65500,17.0
31.66500,15.0
31.67500,25.0
31.68500,19.0
31.69500,21.0
31.70500,19.0
31.71500,19.0
31.72500,17.0
31.73500,13.0
31.74500,17.0
31.75500,16.0
31.76500,17.0
31.77500,18.0
31.78500,13.0
31.79500,21.0
31.80500,20.0
31.81500,24.0
31.82500,16.0
31.83500,13.0
31.84500,17.0
31.85500,20.0
31.86500,6.0
31.87500,15.0
31.88500,21.0
31.89500,22.0
31.90500,23.0
31.91500,25.0
31.92500,19.0
31.93500,16.0
31.94500,19.0
31.95500,21.0
31.96500,22.0
31.97500,20.0
31.98500,21.0
31.99500,16.0
32.00500,23.0
32.01500,14.0
32.02500,23.0
32.03500,15.0
32.04500,17.0
32.05500,20.0
32.06500,14.0
32.07500,16.0
32.08500,24.0
32.09500,6.0
32.10500,18.0
32.11500,26.0
32.12500,20.0
32.13500,15.0
32.14500,26.0
32.15500,20.0
32.16500,10.0
32.17500,23.0
32.18500,20.0
32.19500,16.0
32.20500,15.0
32.21500,19.0
32.22500,13.0
32.23500,18.0
32.24500,18.0
32.25500,14.0
32.26500,16.0
32.27500,21.0
32.28500,11.0
32.29500,13.0
32.30500,12.0
32.31500,15.0
32.32500,14.0
32.33500,13.0
32.34500,19.0
32.35500,5.0
32.36500,21.0
32.37500,14.0
32.38500,23.0
32.39500,21.0
32.40500,24.0
32.41500,20.0
32.42500,13.0
32.43500,14.0
32.44500,11.0
32.45500,15.0
32.46500,30.0
32.47500,25.0
32.48500,23.0
32.49500,19.0
32.50500,14.0
32.51500,20.0
32.52500,12.0
32.53500,17.0
32.54500,17.0
32.55500,15.0
32.56500,17.0
32.57500,18.0
32.58500,9.0
32.59500,18.0
32.60500,16.0
32.61500,17.0
32.62500,14.0
32.63500,16.0
32.64500,17.0
32.65500,19.0
32.66500,22.0
32.67500,21.0
32.68500,15.0
32.69500,15.0
32.70500,17.0
32.71500,9.0
32.72500,24.0
32.73500,23.0
32.74500,16.0
32.75500,20.0
32.76500,22.0
32.77500,18.0
32.78500,23.0
32.79500,12.0
32.80500,9.0
32.81500,16.0
32.82500,18.0
32.83500,17.0
32.84500,16.0
32.85500,22.0
32.86500,23.0
32.87500,15.0
32.88500,18.0
32.89500,24.0
32.90500,24.0
32.91500,12.0
32.92500,20.0
32.93500,15.0
32.94500,19.0
32.95500,20.0
32.96500,11.0
32.97500,26.0
32.98500,10.0
32.99500,13.0
33.00500,14.0
33.01500,14.0
33.02500,15.0
33.03500,13.0
33.04500,22.0
33.05500,12.0
33.06500,20.0
33.07500,18.0
33.08500,24.0
33.09500,20.0
33.10500,23.0
33.11500,20.0
33.12500,17.0
33.13500,16.0
33.14500,13.0
33.15500,18.0
33.16500,19.0
33.17500,17.0
33.18500,23.0
33.19500,12.0
33.20500,11.0
33.21500,12.0
33.22500,17.0
33.23500,13.0
33.24500,18.0
33.25500,20.0
33.26500,16.0
33.27500,18.0
33.28500,17.0
33.29500,11.0
33.30500,20.0
33.31500,23.0
33.32500,19.0
33.33500,18.0
33.34500,16.0
33.35500,15.0
33.36500,16.0
33.37500,10.0
33.38500,15.0
33.39500,19.0
33.40500,8.0
33.41500,14.0
33.42500,21.0
33.43500,19.0
33.44500,16.0
33.45500,18.0
33.46500,22.0
33.47500,14.0
33.48500,25.0
33.49500,15.0
33.50500,26.0
33.51500,16.0
33.52500,14.0
33.53500,19.0
33.54500,20.0
33.55500,10.0
33.56500,18.0
33.57500,24.0
33.58500,19.0
33.59500,14.0
33.60500,17.0
33.61500,14.0
33.62500,15.0
33.63500,27.0
33.64500,14.0
33.65500,15.0
33.66500,23.0
33.67500,10.0
33.68500,12.0
33.69500,16.0
33.70500,13.0
33.71500,14.0
33.72500,17.0
33.73500,14.0
33.74500,13.0
33.75500,19.0
33.76500,17.0
33.77500,13.0
33.78500,16.0
33.79500,9.0
33.80500,16.0
33.81500,18.0
33.82500,18.0
33.83500,16.0
33.84500,21.0
33.85500,18.0
33.86500,24.0
33.87500,18.0
33.88500,16.0
33.89500,19.0
33.90500,18.0
33.91500,22.0
33.92500,24.0
33.93500,12.0
33.94500,11.0
33.95500,10.0
33.96500,12.0
33.97500,23.0
33.98500,22.0
33.99500,19.0
34.00500,15.0
34.01500,19.0
34.02500,18.0
34.03500,18.0
34.04500,15.0
34.05500,15.0
34.06500,18.0
34.07500,14.0
34.08500,25.0
34.09500,14.0
34.10500,17.0
34.11500,22.0
34.12500,22.0
34.13500,18.0
34.14500,18.0
34.15500,14.0
34.16500,19.0
34.17500,17.0
34.18500,11.0
34.19500,11.0
34.20500,10.0
34.21500,25.0
34.22500,16.0
34.23500,13.0
34.24500,12.0
34.25500,19.0
34.26500,13.0
34.27500,19.0
34.28500,12.0
34.29500,13.0
34.30500,18.0
34.31500,16.0
34.32500,17.0
34.33500,22.0
34.34500,19.0
34.35500,15.0
34.36500,16.0
34.37500,22.0
34.38500,14.0
34.39500,15.0
34.40500,17.0
34.41500,16.0
34.42500,6.0
34.43500,21.0
34.44500,22.0
34.45500,14.0
34.46500,24.0
34.47500,13.0
34.48500,14.0
34.49500,20.0
34.50500,17.0
34.51500,15.0
34.52500,11.0
34.53500,15.0
34.54500,14.0
34.55500,22.0
34.56500,18.0
34.57500,12.0
34.58500,15.0
34.59500,19.0
34.60500,15.0
34.61500,12.0
34.62500,16.0
34.63500,5.0
34.64500,25.0
34.65500,16.0
34.66500,20.0
34.67500,19.0
34.68500,16.0
34.69500,11.0
34.70500,16.0
34.71500,15.0
34.72500,11.0
34.73500,21.0
34.74500,22.0
34.75500,20.0
34.76500,14.0
34.77500,13.0
34.78500,23.0
34.79500,17.0
34.80500,15.0
34.81500,14.0
34.82500,8.0
34.83500,14.0
34.84500,17.0
34.85500,10.0
34.86500,16.0
34.87500,14.0
34.88500,16.0
34.89500,21.0
34.90500,18.0
34.91500,18.0
34.92500,16.0
34.93500,17.0
34.94500,17.0
34.95500,16.0
34.96500,18.0
34.97500,8.0
34.98500,5.0
34.99500,15.0
35.00500,11.0
35.01500,14.0
35.02500,19.0
35.03500,15.0
35.04500,15.0
35.05500,16.0
35.06500,16.0
35.07500,19.0
35.08500,14.0
35.09500,18.0
35.10500,12.0
35.11500,14.0
35.12500,18.0
35.13500,17.0
35.14500,20.0
35.15500,17.0
35.16500,21.0
35.17500,19.0
35.18500,7.0
35.19500,14.0
35.20500,17.0
35.21500,9.0
35.22500,17.0
35.23500,11.0
35.24500,16.0
35.25500,23.0
35.26500,9.0
35.27500,17.0
35.28500,18.0
35.29500,13.0
35.30500,12.0
35.31500,18.0
35.32500,20.0
35.33500,16.0
35.34500,15.0
35.35500,14.0
35.36500,25.0
35.37500,13.0
35.38500,13.0
35.39500,13.0
35.40500,18.0
35.41500,11.0
35.42500,23.0
35.43500,18.0
35.44500,23.0
35.45500,11.0
35.46500,12.0
35.47500,17.0
35.48500,10.0
35.49500,13.0
35.50500,21.0
35.51500,20.0
35.52500,15.0
35.53500,20.0
35.54500,19.0
35.55500,19.0
35.56500,20.0
35.57500,19.0
35.58500,17.0
35.59500,14.0
35.60500,14.0
35.61500,19.0
35.62500,12.0
35.63500,18.0
35.64500,12.0
35.65500,14.0
35.66500,19.0
35.67500,18.0
35.68500,25.0
35.69500,17.0
35.70500,9.0
35.71500,11.0
35.72500,15.0
35.73500,18.0
35.74500,14.0
35.75500,14.0
35.76500,15.0
35.77500,14.0
35.78500,16.0
35.79500,15.0
35.80500,15.0
35.81500,15.0
35.82500,23.0
35.83500,14.0
35.84500,19.0
35.85500,8.0
35.86500,18.0
35.87500,9.0
35.88500,14.0
35.89500,17.0
35.90500,17.0
35.91500,15.0
35.92500,8.0
35.93500,15.0
35.94500,10.0
35.95500,11.0
35.96500,20.0
35.97500,15.0
35.98500,12.0
35.99500,18.0
36.00500,16.0
36.01500,25.0
36.02500,18.0
36.03500,23.0
36.04500,14.0
36.05500,11.0
36.06500,20.0
36.07500,14.0
36.08500,12.0
36.09500,15.0
36.10500,20.0
36.11500,15.0
36.12500,17.0
36.13500,15.0
36.14500,15.0
36.15500,14.0
36.16500,13.0
36.17500,11.0
36.18500,18.0
36.19500,11.0
36.20500,17.0
36.21500,8.0
36.22500,22.0
36.23500,17.0
36.24500,16.0
36.25500,11.0
36.26500,19.0
36.27500,14.0
36.28500,24.0
36.29500,13.0
36.30500,20.0
36.31500,21.0
36.32500,16.0
36.33500,9.0
36.34500,23.0
36.35500,9.0
36.36500,14.0
36.37500,11.0
36.38500,11.0
36.39500,20.0
36.40500,17.0
36.41500,16.0
36.42500,12.0
36.43500,16.0
36.44500,17.0
36.45500,16.0
36.46500,15.0
36.47500,10.0
36.48500,15.0
36.49500,18.0
36.50500,18.0
36.51500,13.0
36.52500,11.0
36.53500,22.0
36.54500,15.0
36.55500,23.0
36.56500,14.0
36.57500,17.0
36.58500,10.0
36.59500,18.0
36.60500,16.0
36.61500,12.0
36.62500,14.0
36.63500,11.0
36.64500,18.0
36.65500,24.0
36.66500,14.0
36.67500,10.0
36.68500,11.0
36.69500,15.0
36.70500,20.0
36.71500,16.0
36.72500,24.0
36.73500,10.0
36.74500,11.0
36.75500,15.0
36.76500,10.0
36.77500,17.0
36.78500,18.0
36.79500,18.0
36.80500,14.0
36.81500,8.0
36.82500,16.0
36.83500,24.0
36.84500,8.0
36.85500,19.0
36.86500,15.0
36.87500,16.0
36.88500,16.0
36.89500,20.0
36.90500,18.0
36.91500,24.0
36.92500,10.0
36.93500,9.0
36.94500,15.0
36.95500,17.0
36.96500,17.0
36.97500,18.0
36.98500,11.0
36.99500,19.0
37.00500,13.0
37.01500,15.0
37.02500,12.0
37.03500,13.0
37.04500,13.0
37.05500,13.0
37.06500,10.0
37.07500,13.0
37.08500,15.0
37.09500,17.0
37.10500,14.0
37.11500,18.0
37.12500,11.0
37.13500,17.0
37.14500,18.0
37.15500,18.0
37.16500,16.0
37.17500,16.0
37.18500,10.0
37.19500,14.0
37.20500,12.0
37.21500,8.0
37.22500,18.0
37.23500,18.0
37.24500,21.0
37.25500,10.0
37.26500,16.0
37.27500,19.0
37.28500,22.0
37.29500,11.0
37.30500,10.0
37.31500,11.0
37.32500,19.0
37.33500,18.0
37.34500,11.0
37.35500,17.0
37.36500,17.0
37.37500,11.0
37.38500,20.0
37.39500,13.0
37.40500,8.0
37.41500,16.0
37.42500,17.0
37.43500,14.0
37.44500,20.0
37.45500,18.0
37.46500,19.0
37.47500,20.0
37.48500,15.0
37.49500,15.0
37.50500,17.0
37.51500,13.0
37.52500,16.0
37.53500,19.0
37.54500,16.0
37.55500,22.0
37.56500,13.0
37.57500,19.0
37.58500,14.0
37.59500,20.0
37.60500,12.0
37.61500,18.0
37.62500,15.0
37.63500,17.0
37.64500,18.0
37.65500,12.0
37.66500,15.0
37.67500,8.0
37.68500,16.0
37.69500,23.0
37.70500,16.0
37.71500,17.0
37.72500,10.0
37.73500,12.0
37.74500,17.0
37.75500,24.0
37.76500,20.0
37.77500,13.0
37.78500,22.0
37.79500,18.0
37.80500,16.0
37.81500,20.0
37.82500,20.0
37.83500,23.0
37.84500,26.0
37.85500,20.0
37.86500,7.0
37.87500,16.0
37.88500,17.0
37.89500,26.0
37.90500,14.0
37.91500,19.0
37.92500,16.0
37.93500,15.0
37.94500,12.0
37.95500,13.0
37.96500,14.0
37.97500,16.0
37.98500,19.0
37.99500,13.0
38.00500,15.0
38.01500,12.0
38.02500,22.0
38.03500,16.0
38.04500,16.0
38.05500,18.0
38.06500,16.0
38.07500,21.0
38.08500,18.0
38.09500,21.0
38.10500,17.0
38.11500,16.0
38.12500,13.0
38.13500,12.0
38.14500,19.0
38.15500,20.0
38.16500,19.0
38.17500,7.0
38.18500,19.0
38.19500,18.0
38.20500,15.0
38.21500,24.0
38.22500,13.0
38.23500,19.0
38.24500,10.0
38.25500,12.0
38.26500,17.0
38.27500,15.0
38.28500,12.0
38.29500,16.0
38.30500,13.0
38.31500,24.0
38.32500,14.0
38.33500,17.0
38.34500,13.0
38.35500,16.0
38.36500,13.0
38.37500,7.0
38.38500,15.0
38.39500,15.0
38.40500,12.0
38.41500,18.0
38.42500,18.0
38.43500,10.0
38.44500,25.0
38.45500,21.0
38.46500,20.0
38.47500,20.0
38.48500,17.0
38.49500,15.0
38.50500,17.0
38.51500,10.0
38.52500,17.0
38.53500,23.0
38.54500,17.0
38.55500,18.0
38.56500,17.0
38.57500,14.0
38.58500,11.0
38.59500,15.0
38.60500,12.0
38.61500,16.0
38.62500,13.0
38.63500,15.0
38.64500,15.0
38.65500,18.0
38.66500,19.0
38.67500,16.0
38.68500,14.0
38.69500,16.0
38.70500,23.0
38.71500,19.0
38.72500,16.0
38.73500,10.0
38.74500,8.0
38.75500,15.0
38.76500,16.0
38.77500,14.0
38.78500,13.0
38.79500,18.0
38.80500,20.0
38.81500,17.0
38.82500,10.0
38.83500,15.0
38.84500,15.0
38.85500,12.0
38.86500,19.0
38.87500,12.0
38.88500,13.0
38.89500,10.0
38.90500,22.0
38.91500,15.0
38.92500,20.0
38.93500,15.0
38.94500,16.0
38.95500,20.0
38.96500,16.0
38.97500,21.0
38.98500,21.0
38.99500,21.0
39.00500,17.0
39.01500,17.0
39.02500,15.0
39.03500,17.0
39.04500,12.0
39.05500,18.0
39.06500,11.0
39.07500,12.0
39.08500,12.0
39.09500,23.0
39.10500,22.0
39.11500,12.0
39.12500,20.0
39.13500,16.0
39.14500,16.0
39.15500,12.0
39.16500,16.0
39.17500,15.0
39.18500,20.0
39.19500,15.0
39.20500,18.0
39.21500,15.0
39.22500,15.0
39.23500,14.0
39.24500,17.0
39.25500,16.0
39.26500,20.0
39.27500,12.0
39.28500,16.0
39.29500,17.0
39.30500,16.0
39.31500,17.0
39.32500,8.0
39.33500,20.0
39.34500,23.0
39.35500,13.0
39.36500,11.0
39.37500,17.0
39.38500,14.0
39.39500,19.0
39.40500,18.0
39.41500,21.0
39.42500,18.0
39.43500,14.0
39.44500,11.0
39.45500,17.0
39.46500,19.0
39.47500,11.0
39.48500,14.0
39.49500,18.0
39.50500,18.0
39.51500,17.0
39.52500,15.0
39.53500,18.0
39.54500,15.0
39.55500,16.0
39.56500,13.0
39.57500,20.0
39.58500,10.0
39.59500,20.0
39.60500,17.0
39.61500,13.0
39.62500,15.0
39.63500,17.0
39.64500,15.0
39.65500,17.0
39.66500,12.0
39.67500,17.0
39.68500,14.0
39.69500,24.0
39.70500,20.0
39.71500,16.0
39.72500,15.0
39.73500,16.0
39.74500,22.0
39.75500,14.0
39.76500,16.0
39.77500,16.0
39.78500,20.0
39.79500,12.0
39.80500,14.0
39.81500,13.0
39.82500,14.0
39.83500,12.0
39.84500,20.0
39.85500,17.0
39.86500,13.0
39.87500,13.0
39.88500,15.0
39.89500,17.0
39.90500,13.0
39.91500,18.0
39.92500,18.0
39.93500,23.0
39.94500,11.0
39.95500,18.0
39.96500,17.0
39.97500,17.0
39.98500,17.0
39.99500,19.0
40.00500,15.0
40.01500,14.0
40.02500,22.0
40.03500,21.0
40.04500,21.0
40.05500,13.0
40.06500,12.0
40.07500,9.0
40.08500,19.0
40.09500,13.0
40.10500,17.0
40.11500,17.0
40.12500,16.0
40.13500,17.0
40.14500,19.0
40.15500,12.0
40.16500,20.0
40.17500,21.0
40.18500,14.0
40.19500,16.0
40.20500,16.0
40.21500,13.0
40.22500,9.0
40.23500,20.0
40.24500,13.0
40.25500,17.0
40.26500,11.0
40.27500,15.0
40.28500,14.0
40.29500,13.0
40.30500,11.0
40.31500,11.0
40.32500,19.0
40.33500,14.0
40.34500,22.0
40.35500,14.0
40.36500,16.0
40.37500,15.0
40.38500,19.0
40.39500,16.0
40.40500,18.0
40.41500,21.0
40.42500,19.0
40.43500,7.0
40.44500,12.0
40.45500,12.0
40.46500,18.0
40.47500,24.0
40.48500,22.0
40.49500,22.0
40.50500,22.0
40.51500,13.0
40.52500,17.0
40.53500,20.0
40.54500,20.0
40.55500,12.0
40.56500,17.0
40.57500,20.0
40.58500,28.0
40.59500,16.0
40.60500,22.0
40.61500,22.0
40.62500,23.0
40.63500,16.0
40.64500,13.0
40.65500,21.0
40.66500,24.0
40.67500,13.0
40.68500,14.0
40.69500,22.0
40.70500,14.0
40.71500,23.0
40.72500,15.0
40.73500,18.0
40.74500,21.0
40.75500,19.0
40.76500,17.0
40.77500,17.0
40.78500,25.0
40.79500,23.0
40.80500,17.0
40.81500,24.0
40.82500,16.0
40.83500,12.0
40.84500,13.0
40.85500,15.0
40.86500,21.0
40.87500,19.0
40.88500,19.0
40.89500,18.0
40.90500,20.0
40.91500,24.0
40.92500,18.0
40.93500,15.0
40.94500,24.0
40.95500,18.0
40.96500,27.0
40.97500,17.0
40.98500,17.0
40.99500,28.0
41.00500,23.0
41.01500,24.0
41.02500,18.0
41.03500,17.0
41.04500,26.0
41.05500,37.0
41.06500,23.0
41.07500,14.0
41.08500,19.0
41.09500,22.0
41.10500,20.0
41.11500,20.0
41.12500,23.0
41.13500,21.0
41.14500,20.0
41.15500,30.0
41.16500,25.0
41.17500,21.0
41.18500,23.0
41.19500,18.0
41.20500,20.0
41.21500,20.0
41.22500,26.0
41.23500,24.0
41.24500,23.0
41.25500,26.0
41.26500,28.0
41.27500,19.0
41.28500,27.0
41.29500,21.0
41.30500,23.0
41.31500,22.0
41.32500,21.0
41.33500,29.0
41.34500,19.0
41.35500,27.0
41.36500,18.0
41.37500,28.0
41.38500,30.0
41.39500,35.0
41.40500,29.0
41.41500,19.0
41.42500,20.0
41.43500,15.0
41.44500,19.0
41.45500,19.0
41.46500,27.0
41.47500,20.0
41.48500,24.0
41.49500,24.0
41.50500,29.0
41.51500,16.0
41.52500,32.0
41.53500,32.0
41.54500,18.0
41.55500,41.0
41.56500,30.0
41.57500,36.0
41.58500,32.0
41.59500,39.0
41.60500,33.0
41.61500,26.0
41.62500,25.0
41.63500,36.0
41.64500,38.0
41.65500,42.0
41.66500,35.0
41.67500,38.0
41.68500,24.0
41.69500,36.0
41.70500,25.0
41.71500,37.0
41.72500,23.0
41.73500,43.0
41.74500,27.0
41.75500,34.0
41.76500,25.0
41.77500,30.0
41.78500,21.0
41.79500,27.0
41.80500,28.0
41.81500,44.0
41.82500,27.0
41.83500,33.0
41.84500,38.0
41.85500,36.0
41.86500,38.0
41.87500,37.0
41.88500,28.0
41.89500,29.0
41.90500,48.0
41.91500,43.0
41.92500,51.0
41.93500,54.0
41.94500,34.0
41.95500,42.0
41.96500,31.0
41.97500,50.0
41.98500,46.0
41.99500,48.0
42.00500,38.0
42.01500,36.0
42.02500,51.0
42.03500,39.0
42.04500,40.0
42.05500,37.0
42.06500,33.0
42.07500,39.0
42.08500,32.0
42.09500,31.0
42.10500,43.0
42.11500,32.0
42.12500,46.0
42.13500,47.0
42.14500,51.0
42.15500,45.0
42.16500,48.0
42.17500,49.0
42.18500,57.0
42.19500,51.0
42.20500,58.0
42.21500,55.0
42.22500,54.0
42.23500,50.0
42.24500,75.0
42.25500,58.0
42.26500,59.0
42.27500,70.0
42.28500,75.0
42.29500,63.0
42.30500,63.0
42.31500,65.0
42.32500,66.0
42.33500,59.0
42.34500,47.0
42.35500,51.0
42.36500,50.0
42.37500,50.0
42.38500,65.0
42.39500,54.0
42.40500,50.0
42.41500,60.0
42.42500,45.0
42.43500,58.0
42.44500,51.0
42.45500,51.0
42.46500,61.0
42.47500,75.0
42.48500,67.0
42.49500,68.0
42.50500,52.0
42.51500,69.0
42.52500,91.0
42.53500,90.0
42.54500,98.0
42.55500,92.0
42.56500,88.0
42.57500,113.0
42.58500,95.0
42.59500,79.0
42.60500,101.0
42.61500,97.0
42.62500,94.0
42.63500,75.0
42.64500,114.0
42.65500,87.0
42.66500,89.0
42.67500,101.0
42.68500,89.0
42.69500,84.0
42.70500,102.0
42.71500,89.0
42.72500,89.0
42.73500,98.0
42.74500,96.0
42.75500,107.0
42.76500,127.0
42.77500,127.0
42.78500,111.0
42.79500,123.0
42.80500,141.0
42.81500,168.0
42.82500,159.0
42.83500,187.0
42.84500,208.0
42.85500,184.0
42.86500,200.0
42.87500,198.0
42.88500,200.0
42.89500,195.0
42.90500,244.0
42.91500,206.0
42.92500,228.0
42.93500,216.0
42.94500,202.0
42.95500,187.0
42.96500,214.0
42.97500,202.0
42.98500,216.0
42.99500,190.0
43.00500,235.0
43.01500,211.0
43.02500,238.0
43.03500,260.0
43.04500,245.0
43.05500,248.0
43.06500,274.0
43.07500,302.0
43.08500,352.0
43.09500,338.0
43.10500,390.0
43.11500,386.0
43.12500,420.0
43.13500,465.0
43.14500,484.0
43.15500,535.0
43.16500,551.0
43.17500,506.0
43.18500,583.0
43.19500,586.0
43.20500,619.0
43.21500,611.0
43.22500,601.0
43.23500,627.0
43.24500,641.0
43.25500,692.0
43.26500,747.0
43.27500,737.0
43.28500,720.0
43.29500,818.0
43.30500,838.0
43.31500,860.0
43.32500,915.0
43.33500,975.0
43.34500,1073.0
43.35500,1199.0
43.36500,1252.0
43.37500,1369.0
43.38500,1465.0
43.39500,1506.0
43.40500,1687.0
43.41500,1802.0
43.42500,1870.0
43.43500,1897.0
43.44500,2005.0
43.45500,2191.0
43.46500,2195.0
43.47500,2177.0
43.48500,2383.0
43.49500,2323.0
43.50500,2414.0
43.51500,2430.0
43.52500,2546.0
43.53500,2738.0
43.54500,2717.0
43.55500,2904.0
43.56500,3091.0
43.57500,3330.0
43.58500,3414.0
43.59500,3662.0
43.60500,3968.0
43.61500,4281.0
43.62500,4539.0
43.63500,4810.0
43.64500,5168.0
43.65500,5400.0
43.66500,5684.0
43.67500,5956.0
43.68500,6126.0
43.69500,6207.0
43.70500,6524.0
43.71500,6798.0
43.72500,7016.0
43.73500,7523.0
43.74500,7998.0
43.75500,8148.0
43.76500,8938.0
43.77500,9335.0
43.78500,9968.0
43.79500,10346.0
43.80500,10441.0
43.81500,10601.0
43.82500,10556.0
43.83500,10157.0
43.84500,9908.0
43.85500,9560.0
43.86500,8567.0
43.87500,8294.0
43.88500,7699.0
43.89500,6967.0
43.90500,6486.0
43.91500,5669.0
43.92500,5307.0
43.93500,4751.0
43.94500,4017.0
43.95500,3814.0
43.96500,3375.0
43.97500,3013.0
43.98500,2743.0
43.99500,2314.0
44.00500,2133.0
44.01500,1852.0
44.02500,1631.0
44.03500,1454.0
44.04500,1366.0
44.05500,1147.0
44.06500,1086.0
44.07500,956.0
44.08500,820.0
44.09500,769.0
44.10500,645.0
44.11500,579.0
44.12500,491.0
44.13500,504.0
44.14500,357.0
44.15500,322.0
44.16500,264.0
44.17500,273.0
44.18500,251.0
44.19500,228.0
44.20500,206.0
44.21500,215.0
44.22500,178.0
44.23500,172.0
44.24500,171.0
44.25500,226.0
44.26500,204.0
44.27500,238.0
44.28500,255.0
44.29500,284.0
44.30500,323.0
44.31500,380.0
44.32500,381.0
44.33500,421.0
44.34500,467.0
44.35500,490.0
44.36500,496.0
44.37500,530.0
44.38500,536.0
44.39500,558.0
44.40500,609.0
44.41500,564.0
44.42500,574.0
44.43500,510.0
44.44500,484.0
44.45500,512.0
44.46500,420.0
44.47500,442.0
44.48500,412.0
44.49500,355.0
44.50500,394.0
44.51500,320.0
44.52500,311.0
44.53500,339.0
44.54500,324.0
44.55500,353.0
44.56500,401.0
44.57500,479.0
44.58500,550.0
44.59500,637.0
44.60500,763.0
44.61500,884.0
44.62500,1082.0
44.63500,1185.0
44.64500,1471.0
44.65500,1631.0
44.66500,1906.0
44.67500,2217.0
44.68500,2500.0
44.69500,2786.0
44.70500,3085.0
44.71500,3501.0
44.72500,3750.0
44.73500,4172.0
44.74500,4383.0
44.75500,4573.0
44.76500,5108.0
44.77500,5276.0
44.78500,5521.0
44.79500,5743.0
44.80500,5990.0
44.81500,6099.0
44.82500,6273.0
44.83500,6216.0
44.84500,6376.0
44.85500,6404.0
44.86500,6403.0
44.87500,6385.0
44.88500,6328.0
44.89500,6218.0
44.90500,5968.0
44.91500,5922.0
44.92500,5754.0
44.93500,5205.0
44.94500,5220.0
44.95500,4891.0
44.96500,4563.0
44.97500,4315.0
44.98500,4076.0
44.99500,3699.0
45.00500,3432.0
45.01500,3069.0
45.02500,2913.0
45.03500,2584.0
45.04500,2309.0
45.05500,2104.0
45.06500,1884.0
45.07500,1678.0
45.08500,1397.0
45.09500,1276.0
45.10500,1114.0
45.11500,1025.0
45.12500,920.0
45.13500,776.0
45.14500,738.0
45.15500,694.0
45.16500,681.0
45.17500,586.0
45.18500,670.0
45.19500,674.0
45.20500,648.0
45.21500,714.0
45.22500,665.0
45.23500,731.0
45.24500,722.0
45.25500,702.0
45.26500,716.0
45.27500,729.0
45.28500,662.0
45.29500,678.0
45.30500,622.0
45.31500,590.0
45.32500,627.0
45.33500,518.0
45.34500,558.0
45.35500,497.0
45.36500,467.0
45.37500,439.0
45.38500,408.0
45.39500,335.0
45.40500,381.0
45.41500,328.0
45.42500,313.0
45.43500,269.0
45.44500,285.0
45.45500,282.0
45.46500,314.0
45.47500,318.0
45.48500,316.0
45.49500,365.0
45.50500,432.0
45.51500,486.0
45.52500,508.0
45.53500,550.0
45.54500,651.0
45.55500,745.0
45.56500,881.0
45.57500,1376.0
45.58500,1752.0
45.59500,2305.0
45.60500,2625.0
45.61500,3209.0
45.62500,3180.0
45.63500,3502.0
45.64500,3943.0
45.65500,4940.0
45.66500,6874.0
45.67500,9936.0
45.68500,16361.0
45.69500,34199.0
45.70500,140585.0
45.71500,1414356.0
45.72500,815624.0
45.73500,54311.0
45.74500,18862.0
45.75500,9500.0
45.76500,6003.0
45.77500,3769.0
45.78500,2596.0
45.79500,1812.0
45.80500,1184.0
45.81500,929.0
45.82500,663.0
45.83500,510.0
45.84500,419.0
45.85500,356.0
45.86500,274.0
45.87500,230.0
45.88500,151.0
45.89500,136.0
45.90500,116.0
45.91500,100.0
45.92500,108.0
45.93500,88.0
45.94500,100.0
45.95500,90.0
45.96500,88.0
45.97500,74.0
45.98500,97.0
45.99500,99.0
46.00500,95.0
46.01500,103.0
46.02500,104.0
46.03500,113.0
46.04500,114.0
46.05500,102.0
46.06500,136.0
46.07500,100.0
46.08500,100.0
46.09500,102.0
46.10500,96.0
46.11500,82.0
46.12500,69.0
46.13500,67.0
46.14500,61.0
46.15500,67.0
46.16500,49.0
46.17500,50.0
46.18500,46.0
46.19500,47.0
46.20500,33.0
46.21500,36.0
46.22500,31.0
46.23500,36.0
46.24500,29.0
46.25500,30.0
46.26500,27.0
46.27500,18.0
46.28500,26.0
46.29500,30.0
46.30500,24.0
46.31500,27.0
46.32500,25.0
46.33500,33.0
46.34500,24.0
46.35500,30.0
46.36500,30.0
46.37500,28.0
46.38500,30.0
46.39500,21.0
46.40500,25.0
46.41500,16.0
46.42500,23.0
46.43500,26.0
46.44500,26.0
46.45500,19.0
46.46500,15.0
46.47500,19.0
46.48500,17.0
46.49500,18.0
46.50500,16.0
46.51500,14.0
46.52500,12.0
46.53500,16.0
46.54500,10.0
46.55500,9.0
46.56500,9.0
46.57500,18.0
46.58500,11.0
46.59500,10.0
46.60500,18.0
46.61500,21.0
46.62500,16.0
46.63500,14.0
46.64500,22.0
46.65500,27.0
46.66500,18.0
46.67500,21.0
46.68500,15.0
46.69500,19.0
46.70500,12.0
46.71500,30.0
46.72500,20.0
46.73500,22.0
46.74500,24.0
46.75500,15.0
46.76500,15.0
46.77500,19.0
46.78500,16.0
46.79500,19.0
46.80500,17.0
46.81500,15.0
46.82500,14.0
46.83500,18.0
46.84500,21.0
46.85500,18.0
46.86500,20.0
46.87500,11.0
46.88500,14.0
46.89500,13.0
46.90500,13.0
46.91500,13.0
46.92500,18.0
46.93500,15.0
46.94500,11.0
46.95500,9.0
46.96500,18.0
46.97500,21.0
46.98500,25.0
46.99500,22.0
47.00500,26.0
47.01500,12.0
47.02500,17.0
47.03500,13.0
47.04500,8.0
47.05500,16.0
47.06500,12.0
47.07500,15.0
47.08500,15.0
47.09500,19.0
47.10500,6.0
47.11500,7.0
47.12500,19.0
47.13500,16.0
47.14500,18.0
47.15500,17.0
47.16500,20.0
47.17500,11.0
47.18500,12.0
47.19500,17.0
47.20500,13.0
47.21500,9.0
47.22500,11.0
47.23500,11.0
47.24500,13.0
47.25500,20.0
47.26500,12.0
47.27500,20.0
47.28500,11.0
47.29500,16.0
47.30500,21.0
47.31500,16.0
47.32500,17.0
47.33500,18.0
47.34500,16.0
47.35500,18.0
47.36500,23.0
47.37500,14.0
47.38500,8.0
47.39500,18.0
47.40500,14.0
47.41500,15.0
47.42500,15.0
47.43500,11.0
47.44500,17.0
47.45500,17.0
47.46500,12.0
47.47500,18.0
47.48500,10.0
47.49500,11.0
47.50500,17.0
47.51500,10.0
47.52500,13.0
47.53500,13.0
47.54500,12.0
47.55500,14.0
47.56500,14.0
47.57500,19.0
47.58500,12.0
47.59500,21.0
47.60500,13.0
47.61500,13.0
47.62500,25.0
47.63500,19.0
47.64500,7.0
47.65500,15.0
47.66500,14.0
47.67500,14.0
47.68500,13.0
47.69500,13.0
47.70500,23.0
47.71500,16.0
47.72500,15.0
47.73500,12.0
47.74500,14.0
47.75500,16.0
47.76500,7.0
47.77500,13.0
47.78500,16.0
47.79500,18.0
47.80500,13.0
47.81500,9.0
47.82500,17.0
47.83500,9.0
47.84500,10.0
47.85500,5.0
47.86500,9.0
47.87500,13.0
47.88500,13.0
47.89500,7.0
47.90500,13.0
47.91500,14.0
47.92500,20.0
47.93500,14.0
47.94500,11.0
47.95500,14.0
47.96500,10.0
47.97500,11.0
47.98500,17.0
47.99500,14.0
48.00500,19.0
48.01500,12.0
48.02500,13.0
48.03500,11.0
48.04500,21.0
48.05500,15.0
48.06500,12.0
48.07500,11.0
48.08500,9.0
48.09500,14.0
48.10500,10.0
48.11500,10.0
48.12500,8.0
48.13500,11.0
48.14500,9.0
48.15500,7.0
48.16500,16.0
48.17500,17.0
48.18500,10.0
48.19500,11.0
48.20500,16.0
48.21500,9.0
48.22500,12.0
48.23500,14.0
48.24500,14.0
48.25500,13.0
48.26500,11.0
48.27500,16.0
48.28500,12.0
48.29500,11.0
48.30500,10.0
48.31500,14.0
48.32500,14.0
48.33500,16.0
48.34500,21.0
48.35500,16.0
48.36500,14.0
48.37500,13.0
48.38500,16.0
48.39500,21.0
48.40500,10.0
48.41500,11.0
48.42500,20.0
48.43500,17.0
48.44500,8.0
48.45500,8.0
48.46500,8.0
48.47500,8.0
48.48500,11.0
48.49500,9.0
48.50500,14.0
48.51500,10.0
48.52500,19.0
48.53500,8.0
48.54500,15.0
48.55500,16.0
48.56500,17.0
48.57500,16.0
48.58500,14.0
48.59500,12.0
48.60500,14.0
48.61500,12.0
48.62500,10.0
48.63500,3.0
48.64500,17.0
48.65500,12.0
48.66500,16.0
48.67500,12.0
48.68500,13.0
48.69500,8.0
48.70500,18.0
48.71500,15.0
48.72500,6.0
48.73500,14.0
48.74500,12.0
48.75500,14.0
48.76500,11.0
48.77500,10.0
48.78500,8.0
48.79500,16.0
48.80500,11.0
48.81500,17.0
48.82500,11.0
48.83500,15.0
48.84500,11.0
48.85500,12.0
48.86500,14.0
48.87500,16.0
48.88500,8.0
48.89500,12.0
48.90500,11.0
48.91500,9.0
48.92500,21.0
48.93500,11.0
48.94500,10.0
48.95500,11.0
48.96500,11.0
48.97500,14.0
48.98500,10.0
48.99500,10.0
49.00500,10.0
49.01500,14.0
49.02500,12.0
49.03500,12.0
49.04500,11.0
49.05500,11.0
49.06500,10.0
49.07500,9.0
49.08500,10.0
49.09500,13.0
49.10500,7.0
49.11500,19.0
49.12500,8.0
49.13500,14.0
49.14500,13.0
49.15500,12.0
49.16500,5.0
49.17500,11.0
49.18500,17.0
49.19500,12.0
49.20500,14.0
49.21500,15.0
49.22500,16.0
49.23500,11.0
49.24500,9.0
49.25500,13.0
49.26500,20.0
49.27500,18.0
49.28500,11.0
49.29500,13.0
49.30500,13.0
49.31500,10.0
49.32500,12.0
49.33500,18.0
49.34500,14.0
49.35500,15.0
49.36500,12.0
49.37500,11.0
49.38500,7.0
49.39500,9.0
49.40500,15.0
49.41500,10.0
49.42500,14.0
49.43500,12.0
49.44500,12.0
49.45500,9.0
49.46500,7.0
49.47500,8.0
49.48500,13.0
49.49500,11.0
49.50500,16.0
49.51500,6.0
49.52500,13.0
49.53500,22.0
49.54500,13.0
49.55500,16.0
49.56500,12.0
49.57500,16.0
49.58500,9.0
49.59500,15.0
49.60500,12.0
49.61500,10.0
49.62500,8.0
49.63500,7.0
49.64500,16.0
49.65500,17.0
49.66500,6.0
49.67500,10.0
49.68500,13.0
49.69500,11.0
49.70500,11.0
49.71500,8.0
49.72500,16.0
49.73500,3.0
49.74500,6.0
49.75500,10.0
49.76500,9.0
49.77500,8.0
49.78500,7.0
49.79500,13.0
49.80500,16.0
49.81500,10.0
49.82500,11.0
49.83500,12.0
49.84500,9.0
49.85500,13.0
49.86500,10.0
49.87500,16.0
49.88500,13.0
49.89500,10.0
49.90500,8.0
49.91500,12.0
49.92500,16.0
49.93500,16.0
49.94500,18.0
49.95500,14.0
49.96500,21.0
49.97500,14.0
49.98500,17.0
49.99500,14.0
50.00500,12.0
50.01500,17.0
50.02500,21.0
50.03500,14.0
50.04500,4.0
50.05500,10.0
50.06500,12.0
50.07500,9.0
50.08500,6.0
50.09500,11.0
50.10500,15.0
50.11500,9.0
50.12500,19.0
50.13500,17.0
50.14500,11.0
50.15500,6.0
50.16500,18.0
50.17500,14.0
50.18500,13.0
50.19500,18.0
50.20500,10.0
50.21500,9.0
50.22500,16.0
50.23500,14.0
50.24500,12.0
50.25500,11.0
50.26500,18.0
50.27500,9.0
50.28500,9.0
50.29500,8.0
50.30500,15.0
50.31500,15.0
50.32500,13.0
50.33500,14.0
50.34500,13.0
50.35500,15.0
50.36500,19.0
50.37500,18.0
50.38500,11.0
50.39500,13.0
50.40500,8.0
50.41500,18.0
50.42500,12.0
50.43500,5.0
50.44500,8.0
50.45500,5.0
50.46500,11.0
50.47500,11.0
50.48500,18.0
50.49500,13.0
50.50500,18.0
50.51500,8.0
50.52500,11.0
50.53500,13.0
50.54500,13.0
50.55500,14.0
50.56500,13.0
50.57500,13.0
50.58500,9.0
50.59500,10.0
50.60500,16.0
50.61500,14.0
50.62500,10.0
50.63500,13.0
50.64500,19.0
50.65500,15.0
50.66500,11.0
50.67500,10.0
50.68500,4.0
50.69500,10.0
50.70500,11.0
50.71500,13.0
50.72500,11.0
50.73500,12.0
50.74500,12.0
50.75500,9.0
50.76500,7.0
50.77500,9.0
50.78500,12.0
50.79500,11.0
50.80500,9.0
50.81500,4.0
50.82500,16.0
50.83500,12.0
50.84500,18.0
50.85500,12.0
50.86500,8.0
50.87500,14.0
50.88500,14.0
50.89500,13.0
50.90500,16.0
50.91500,20.0
50.92500,9.0
50.93500,9.0
50.94500,14.0
50.95500,7.0
50.96500,19.0
50.97500,10.0
50.98500,6.0
50.99500,16.0
51.00500,10.0
51.01500,13.0
51.02500,10.0
51.03500,6.0
51.04500,11.0
51.05500,11.0
51.06500,11.0
51.07500,7.0
51.08500,22.0
51.09500,14.0
51.10500,4.0
51.11500,9.0
51.12500,7.0
51.13500,9.0
51.14500,9.0
51.15500,14.0
51.16500,11.0
51.17500,9.0
51.18500,15.0
51.19500,11.0
51.20500,14.0
51.21500,11.0
51.22500,13.0
51.23500,4.0
51.24500,8.0
51.25500,9.0
51.26500,11.0
51.27500,13.0
51.28500,13.0
51.29500,12.0
51.30500,14.0
51.31500,9.0
51.32500,20.0
51.33500,13.0
51.34500,14.0
51.35500,7.0
51.36500,11.0
51.37500,10.0
51.38500,10.0
51.39500,10.0
51.40500,15.0
51.41500,13.0
51.42500,11.0
51.43500,13.0
51.44500,3.0
51.45500,9.0
51.46500,9.0
51.47500,10.0
51.48500,12.0
51.49500,19.0
51.50500,17.0
51.51500,10.0
51.52500,13.0
51.53500,12.0
51.54500,12.0
51.55500,5.0
51.56500,12.0
51.57500,10.0
51.58500,12.0
51.59500,14.0
51.60500,11.0
51.61500,14.0
51.62500,11.0
51.63500,12.0
51.64500,14.0
51.65500,9.0
51.66500,9.0
51.67500,12.0
51.68500,10.0
51.69500,16.0
51.70500,6.0
51.71500,7.0
51.72500,14.0
51.73500,11.0
51.74500,9.0
51.75500,13.0
51.76500,17.0
51.77500,12.0
51.78500,11.0
51.79500,10.0
51.80500,7.0
51.81500,9.0
51.82500,12.0
51.83500,8.0
51.84500,14.0
51.85500,11.0
51.86500,8.0
51.87500,21.0
51.88500,17.0
51.89500,10.0
51.90500,11.0
51.91500,8.0
51.92500,10.0
51.93500,10.0
51.94500,16.0
51.95500,13.0
51.96500,9.0
51.97500,12.0
51.98500,13.0
51.99500,9.0
52.00500,9.0
52.01500,15.0
52.02500,11.0
52.03500,12.0
52.04500,6.0
52.05500,9.0
52.06500,7.0
52.07500,12.0
52.08500,14.0
52.09500,17.0
52.10500,8.0
52.11500,7.0
52.12500,9.0
52.13500,13.0
52.14500,10.0
52.15500,8.0
52.16500,15.0
52.17500,7.0
52.18500,14.0
52.19500,18.0
52.20500,6.0
52.21500,16.0
52.22500,13.0
52.23500,9.0
52.24500,10.0
52.25500,7.0
52.26500,10.0
52.27500,14.0
52.28500,20.0
52.29500,9.0
52.30500,9.0
52.31500,13.0
52.32500,7.0
52.33500,11.0
52.34500,14.0
52.35500,12.0
52.36500,8.0
52.37500,11.0
52.38500,9.0
52.39500,9.0
52.40500,15.0
52.41500,15.0
52.42500,15.0
52.43500,8.0
52.44500,10.0
52.45500,12.0
52.46500,7.0
52.47500,10.0
52.48500,11.0
52.49500,15.0
52.50500,8.0
52.51500,7.0
52.52500,12.0
52.53500,9.0
52.54500,8.0
52.55500,10.0
52.56500,10.0
52.57500,16.0
52.58500,25.0
52.59500,12.0
52.60500,5.0
52.61500,10.0
52.62500,12.0
52.63500,13.0
52.64500,16.0
52.65500,3.0
52.66500,10.0
52.67500,5.0
52.68500,10.0
52.69500,13.0
52.70500,13.0
52.71500,14.0
52.72500,16.0
52.73500,8.0
52.74500,7.0
52.75500,10.0
52.76500,12.0
52.77500,10.0
52.78500,12.0
52.79500,11.0
52.80500,10.0
52.81500,16.0
52.82500,10.0
52.83500,7.0
52.84500,7.0
52.85500,12.0
52.86500,9.0
52.87500,12.0
52.88500,13.0
52.89500,12.0
52.90500,8.0
52.91500,11.0
52.92500,16.0
52.93500,16.0
52.94500,12.0
52.95500,19.0
52.96500,10.0
52.97500,12.0
52.98500,9.0
52.99500,13.0
53.00500,9.0
53.01500,8.0
53.02500,11.0
53.03500,14.0
53.04500,13.0
53.05500,17.0
53.06500,12.0
53.07500,12.0
53.08500,5.0
53.09500,7.0
53.10500,10.0
53.11500,10.0
53.12500,13.0
53.13500,9.0
53.14500,11.0
53.15500,15.0
53.16500,17.0
53.17500,14.0
53.18500,15.0
53.19500,11.0
53.20500,10.0
53.21500,15.0
53.22500,14.0
53.23500,13.0
53.24500,10.0
53.25500,14.0
53.26500,11.0
53.27500,8.0
53.28500,9.0
53.29500,14.0
53.30500,8.0
53.31500,20.0
53.32500,10.0
53.33500,17.0
53.34500,11.0
53.35500,14.0
53.36500,14.0
53.37500,11.0
53.38500,17.0
53.39500,14.0
53.40500,8.0
53.41500,7.0
53.42500,13.0
53.43500,14.0
53.44500,8.0
53.45500,11.0
53.46500,11.0
53.47500,10.0
53.48500,14.0
53.49500,16.0
53.50500,12.0
53.51500,10.0
53.52500,9.0
53.53500,15.0
53.54500,12.0
53.55500,14.0
53.56500,13.0
53.57500,9.0
53.58500,13.0
53.59500,14.0
53.60500,12.0
53.61500,12.0
53.62500,12.0
53.63500,17.0
53.64500,11.0
53.65500,9.0
53.66500,7.0
53.67500,10.0
53.68500,12.0
53.69500,10.0
53.70500,11.0
53.71500,13.0
53.72500,14.0
53.73500,11.0
53.74500,15.0
53.75500,8.0
53.76500,6.0
53.77500,8.0
53.78500,9.0
53.79500,11.0
53.80500,9.0
53.81500,10.0
53.82500,10.0
53.83500,16.0
53.84500,11.0
53.85500,12.0
53.86500,13.0
53.87500,12.0
53.88500,17.0
53.89500,15.0
53.90500,18.0
53.91500,11.0
53.92500,10.0
53.93500,7.0
53.94500,15.0
53.95500,12.0
53.96500,9.0
53.97500,14.0
53.98500,11.0
53.99500,19.0
54.00500,12.0
54.01500,11.0
54.02500,13.0
54.03500,14.0
54.04500,12.0
54.05500,15.0
54.06500,14.0
54.07500,12.0
54.08500,3.0
54.09500,14.0
54.10500,11.0
54.11500,13.0
54.12500,12.0
54.13500,15.0
54.14500,11.0
54.15500,9.0
54.16500,11.0
54.17500,4.0
54.18500,10.0
54.19500,9.0
54.20500,13.0
54.21500,16.0
54.22500,12.0
54.23500,12.0
54.24500,11.0
54.25500,12.0
54.26500,8.0
54.27500,15.0
54.28500,12.0
54.29500,24.0
54.30500,8.0
54.31500,4.0
54.32500,12.0
54.33500,13.0
54.34500,11.0
54.35500,22.0
54.36500,15.0
54.37500,12.0
54.38500,11.0
54.39500,13.0
54.40500,18.0
54.41500,10.0
54.42500,10.0
54.43500,9.0
54.44500,12.0
54.45500,7.0
54.46500,10.0
54.47500,6.0
54.48500,12.0
54.49500,12.0
54.50500,12.0
54.51500,9.0
54.52500,13.0
54.53500,21.0
54.54500,8.0
54.55500,15.0
54.56500,9.0
54.57500,15.0
54.58500,13.0
54.59500,3.0
54.60500,13.0
54.61500,8.0
54.62500,11.0
54.63500,9.0
54.64500,12.0
54.65500,16.0
54.66500,8.0
54.67500,11.0
54.68500,14.0
54.69500,8.0
54.70500,14.0
54.71500,14.0
54.72500,13.0
54.73500,9.0
54.74500,14.0
54.75500,5.0
54.76500,14.0
54.77500,6.0
54.78500,10.0
54.79500,10.0
54.80500,19.0
54.81500,11.0
54.82500,19.0
54.83500,11.0
54.84500,8.0
54.85500,7.0
54.86500,8.0
54.87500,9.0
54.88500,16.0
54.89500,6.0
54.90500,18.0
54.91500,6.0
54.92500,17.0
54.93500,12.0
54.94500,14.0
54.95500,19.0
54.96500,14.0
54.97500,14.0
54.98500,9.0
54.99500,7.0
